0.0005 	-0.0172381 	6.90727e-08 	-1.03318e-10
0.0015 	-0.0847567 	-1.96556e-07 	1.99606e-09
0.0025 	0.413721 	-2.07751e-07 	7.2643e-10
0.0035 	0.689068 	1.9012e-07 	-2.06865e-09
0.0045 	0.143728 	2.90418e-07 	-1.75874e-09
0.0055 	-0.282451 	-1.04847e-08 	5.664e-10
0.0065 	-0.0493496 	-1.5741e-07 	1.02089e-09
0.0075 	0.168803 	-1.23421e-08 	-2.24492e-10
0.0085 	0.0863765 	4.33301e-08 	-2.20384e-10
0.0095 	0.0505962 	-3.32089e-08 	3.83454e-10
0.0105 	0.137271 	-1.99315e-08 	1.90339e-10
0.0115 	0.162783 	8.7612e-08 	-1.32137e-09
0.0125 	-0.108476 	2.60679e-07 	-2.35204e-09
0.0135 	-0.526203 	6.27323e-08 	2.39062e-10
0.0145 	-0.414465 	-3.28284e-07 	3.19742e-09
0.0155 	0.235294 	-3.01522e-07 	2.21755e-09
0.0165 	0.530516 	8.77958e-08 	-1.32105e-09
0.0175 	0.172866 	3.25884e-07 	-2.91386e-09
0.0185 	-0.297346 	1.60153e-07 	-1.08853e-09
0.0195 	-0.431195 	-1.07437e-07 	1.14487e-09
0.0205 	-0.211633 	-1.84295e-07 	1.50455e-09
0.0215 	0.0539984 	-8.83552e-08 	6.16565e-10
0.0225 	0.145547 	7.91091e-09 	-1.52421e-10
0.0235 	0.108797 	5.29876e-08 	-4.96166e-10
0.0245 	0.0186605 	6.10772e-08 	-3.72628e-10
0.0255 	-0.0504879 	-1.03497e-09 	3.11844e-10
0.0265 	0.0138626 	-9.13699e-08 	9.03242e-10
0.0275 	0.202648 	-1.02629e-07 	7.90738e-10
0.0285 	0.348937 	-4.85822e-08 	3.68412e-10
0.0295 	0.387688 	-1.15522e-08 	9.40779e-11
0.0305 	0.409702 	8.23975e-09 	-1.05347e-10
0.0315 	0.40242 	2.93755e-08 	-1.91288e-10
0.0325 	0.353493 	1.82066e-08 	-1.24824e-10
0.0335 	0.343466 	5.49505e-09 	-1.48396e-10
0.0345 	0.294306 	-8.72337e-09 	2.68507e-10
0.0355 	0.32307 	-8.39928e-08 	7.14643e-10
0.0365 	0.566176 	-3.29725e-08 	-8.20831e-11
0.0375 	0.500252 	4.69596e-08 	2.9027e-10
0.0385 	0.423744 	-2.13977e-07 	2.49285e-09
0.0395 	1.06457 	-1.95671e-07 	2.25405e-10
0.0405 	1.18976 	4.36915e-07 	-4.22841e-09
0.0415 	0.23418 	4.5013e-07 	-2.7564e-09
0.0425 	-0.286394 	-1.58036e-08 	3.37632e-10
0.0435 	-0.121469 	-6.63082e-08 	4.10099e-10
0.0445 	-0.0928146 	1.04756e-07 	-1.85685e-09
0.0455 	-0.488741 	3.96822e-07 	-4.52907e-09
0.0465 	-1.29848 	4.28189e-07 	-3.45347e-09
0.0475 	-1.98256 	1.17073e-07 	-1.77829e-10
0.0485 	-2.09651 	-1.13256e-07 	1.74793e-09
0.0495 	-1.78138 	-2.45809e-07 	2.52104e-09
0.0505 	-1.23512 	-2.83267e-07 	2.6326e-09
0.0515 	-0.66403 	-2.31001e-07 	2.18618e-09
0.0525 	-0.246053 	-1.93418e-07 	2.14638e-09
0.0535 	0.195302 	-2.28377e-07 	2.11637e-09
0.0545 	0.661162 	-1.37652e-07 	1.23258e-09
0.0555 	0.803673 	-1.25646e-07 	1.9799e-09
0.0565 	1.11489 	-3.01825e-07 	2.2892e-09
0.0575 	1.71164 	-1.58601e-08 	-1.44709e-09
0.0585 	1.54392 	4.47368e-07 	-4.33814e-09
0.0595 	0.623905 	4.42526e-07 	-3.31062e-09
0.0605 	-0.17877 	1.9472e-07 	-9.16829e-10
0.0615 	-0.445127 	-8.54612e-08 	1.28694e-09
0.0625 	-0.104943 	-2.47829e-07 	1.95523e-09
0.0635 	0.433321 	-1.322e-07 	6.36214e-10
0.0645 	0.577963 	8.0661e-08 	-7.96561e-10
0.0655 	0.295192 	1.12319e-07 	-5.44804e-10
0.0665 	0.113937 	-5.9563e-08 	8.16518e-10
0.0675 	0.376299 	-1.58555e-07 	1.05426e-09
0.0685 	0.715755 	-1.99981e-08 	-2.39904e-10
0.0695 	0.627067 	1.43232e-07 	-1.13498e-09
0.0705 	0.245805 	8.79145e-08 	-2.35128e-10
0.0715 	0.17444 	-1.17333e-07 	1.12622e-09
0.0725 	0.559028 	-1.43009e-07 	7.56548e-10
0.0735 	0.811481 	5.59362e-08 	-7.99268e-10
0.0745 	0.527046 	1.74068e-07 	-1.14104e-09
0.0755 	0.137501 	1.49017e-08 	4.13861e-10
0.0765 	0.2924 	-1.86742e-07 	1.41787e-09
0.0775 	0.788649 	-9.46631e-08 	2.31796e-10
0.0785 	0.854218 	1.46707e-07 	-1.36837e-09
0.0795 	0.361435 	1.74708e-07 	-8.71574e-10
0.0805 	0.0751665 	-8.77732e-08 	1.15283e-09
0.0815 	0.505114 	-2.24926e-07 	1.41342e-09
0.0825 	1.00166 	-3.68842e-09 	-5.36193e-10
0.0835 	0.777589 	2.29713e-07 	-1.74526e-09
0.0845 	0.152769 	1.18263e-07 	-2.08385e-10
0.0855 	0.124091 	-1.99661e-07 	1.75842e-09
0.0865 	0.783282 	-1.96835e-07 	9.40492e-10
0.0875 	1.09358 	1.16262e-07 	-1.36304e-09
0.0885 	0.555664 	2.61263e-07 	-1.6284e-09
0.0895 	-0.00631308 	-2.44415e-09 	7.43436e-10
0.0905 	0.328703 	-2.69198e-07 	1.88823e-09
0.0915 	1.03022 	-8.80703e-08 	1.24383e-12
0.0925 	0.973595 	2.2305e-07 	-1.86307e-09
0.0935 	0.255131 	1.94806e-07 	-8.15451e-10
0.0945 	0.0130895 	-1.47859e-07 	1.56293e-09
0.0955 	0.651031 	-2.41569e-07 	1.32645e-09
0.0965 	1.12513 	6.28852e-08 	-1.03494e-09
0.0975 	0.674973 	2.62708e-07 	-1.74656e-09
0.0985 	0.0258773 	5.05038e-08 	3.46436e-10
0.0995 	0.228392 	-2.42313e-07 	1.81105e-09
0.1005 	0.944952 	-1.24366e-07 	3.04329e-10
0.1015 	1.00859 	1.85934e-07 	-1.64698e-09
0.1025 	0.329548 	2.03835e-07 	-9.56193e-10
0.1035 	0.0052178 	-1.12302e-07 	1.34149e-09
0.1045 	0.587043 	-2.4313e-07 	1.41432e-09
0.1055 	1.1294 	2.91814e-08 	-8.01007e-10
0.1065 	0.751529 	2.54706e-07 	-1.76349e-09
0.1075 	0.0536264 	7.97009e-08 	1.39029e-10
0.1085 	0.179063 	-2.33615e-07 	1.82813e-09
0.1095 	0.943713 	-1.57066e-07 	5.60122e-10
0.1105 	1.1159 	1.65554e-07 	-1.58952e-09
0.1115 	0.419396 	2.38207e-07 	-1.26312e-09
0.1125 	-0.0425653 	-7.5259e-08 	1.17765e-09
0.1135 	0.511071 	-2.68351e-07 	1.65666e-09
0.1145 	1.18399 	-1.3889e-08 	-5.26345e-10
0.1155 	0.89336 	2.55319e-07 	-1.88444e-09
0.1165 	0.102989 	1.36225e-07 	-2.85152e-10
0.1175 	0.0695726 	-2.03506e-07 	1.7439e-09
0.1185 	0.846518 	-1.97076e-07 	8.84084e-10
0.1195 	1.16881 	1.22129e-07 	-1.33104e-09
0.1205 	0.543487 	2.48277e-07 	-1.47726e-09
0.1215 	-0.0405903 	-6.56516e-09 	6.84127e-10
0.1225 	0.334162 	-2.38541e-07 	1.58176e-09
0.1235 	1.01864 	-6.26244e-08 	-1.07324e-10
0.1245 	0.90826 	1.94808e-07 	-1.52325e-09
0.1255 	0.223719 	1.49214e-07 	-5.74585e-10
0.1265 	0.0380303 	-1.17693e-07 	1.15682e-09
0.1275 	0.596247 	-1.69293e-07 	8.41557e-10
0.1285 	0.945399 	5.90789e-08 	-7.91518e-10
0.1295 	0.548734 	1.75737e-07 	-1.08425e-09
0.1305 	0.0769203 	2.15059e-08 	2.70268e-10
0.1315 	0.250703 	-1.44153e-07 	9.89206e-10
0.1325 	0.715851 	-5.32796e-08 	8.10355e-12
0.1335 	0.691318 	1.13737e-07 	-8.83291e-10
0.1345 	0.262456 	8.44466e-08 	-2.81688e-10
0.1355 	0.150105 	-7.59903e-08 	7.13134e-10
0.1365 	0.510103 	-9.6656e-08 	4.38457e-10
0.1375 	0.715844 	4.73968e-08 	-5.5861e-10
0.1385 	0.427849 	1.05218e-07 	-5.54021e-10
0.1395 	0.151192 	-2.24492e-08 	4.65115e-10
0.1405 	0.383384 	-1.21964e-07 	7.75103e-10
0.1415 	0.768781 	-2.16937e-08 	-1.72633e-10
0.1425 	0.674637 	1.18865e-07 	-8.80435e-10
0.1435 	0.228446 	6.90919e-08 	-1.01929e-10
0.1445 	0.180769 	-1.15027e-07 	1.00507e-09
0.1455 	0.689816 	-1.29402e-07 	6.24048e-10
0.1465 	0.994158 	5.75907e-08 	-7.57941e-10
0.1475 	0.588729 	1.74882e-07 	-1.07879e-09
0.1485 	0.0564625 	1.70137e-08 	4.04715e-10
0.1495 	0.29827 	-1.94017e-07 	1.37304e-09
0.1505 	1.01143 	-1.03021e-07 	2.83483e-10
0.1515 	1.11282 	1.42791e-07 	-1.31262e-09
0.1525 	0.401314 	2.02848e-07 	-1.03289e-09
0.1535 	-0.0725964 	-6.5229e-08 	1.01943e-09
0.1545 	0.521888 	-2.46626e-07 	1.48807e-09
0.1555 	1.29092 	-3.33121e-08 	-2.97932e-10
0.1565 	1.05566 	2.22736e-07 	-1.70217e-09
0.1575 	0.143633 	1.74733e-07 	-6.09033e-10
0.1585 	-0.0747207 	-1.5939e-07 	1.52554e-09
0.1595 	0.800132 	-2.37081e-07 	1.20625e-09
0.1605 	1.40151 	5.69688e-08 	-8.9734e-10
0.1615 	0.8325 	2.58128e-07 	-1.7148e-09
0.1625 	-0.0649698 	9.88828e-08 	-5.56397e-12
0.1635 	0.0523287 	-2.15653e-07 	1.64217e-09
0.1645 	0.988494 	-1.68369e-07 	6.6125e-10
0.1655 	1.27688 	1.22064e-07 	-1.18887e-09
0.1665 	0.544017 	2.24928e-07 	-1.28865e-09
0.1675 	-0.113013 	6.77631e-09 	5.14109e-10
0.1685 	0.278338 	-2.11355e-07 	1.35568e-09
0.1695 	1.05084 	-7.33361e-08 	5.00048e-11
0.1705 	1.00205 	1.5257e-07 	-1.18422e-09
0.1715 	0.283602 	1.47228e-07 	-6.43672e-10
0.1725 	-0.0215154 	-6.88232e-08 	7.92236e-10
0.1735 	0.505362 	-1.57529e-07 	8.3e-10
0.1745 	0.979555 	1.23694e-08 	-4.1392e-10
0.1755 	0.679593 	1.44233e-07 	-9.25877e-10
0.1765 	0.120072 	5.72047e-08 	-3.11341e-11
0.1775 	0.15217 	-1.07805e-07 	8.11267e-10
0.1785 	0.676121 	-8.67764e-08 	3.03959e-10
0.1795 	0.841215 	6.71945e-08 	-6.30442e-10
0.1805 	0.416451 	1.09294e-07 	-5.43893e-10
0.1815 	0.0851544 	-1.87066e-08 	3.98887e-10
0.1825 	0.368731 	-1.13989e-07 	6.75264e-10
0.1835 	0.807645 	-2.4617e-08 	-1.00875e-10
0.1845 	0.718616 	9.75197e-08 	-7.02603e-10
0.1855 	0.247372 	7.27184e-08 	-2.18316e-10
0.1865 	0.125453 	-6.81975e-08 	6.24024e-10
0.1875 	0.557762 	-1.02058e-07 	4.95146e-10
0.1885 	0.880697 	1.95729e-08 	-3.59531e-10
0.1895 	0.615355 	1.10258e-07 	-6.97499e-10
0.1905 	0.148941 	4.45588e-08 	-8.89094e-12
0.1915 	0.17482 	-9.09142e-08 	6.87024e-10
0.1925 	0.65703 	-8.4268e-08 	3.43794e-10
0.1935 	0.876379 	4.10632e-08 	-4.55109e-10
0.1945 	0.539768 	1.06424e-07 	-6.36779e-10
0.1955 	0.114287 	3.09512e-08 	5.68639e-11
0.1965 	0.188945 	-8.87138e-08 	6.37454e-10
0.1975 	0.642188 	-7.3106e-08 	2.90932e-10
0.1985 	0.827606 	3.60966e-08 	-3.87476e-10
0.1995 	0.53496 	9.22165e-08 	-5.69458e-10
0.2005 	0.145964 	3.78122e-08 	-3.28871e-11
0.2015 	0.151817 	-6.81429e-08 	5.35168e-10
0.2025 	0.539834 	-7.70944e-08 	3.6757e-10
0.2035 	0.791589 	9.24173e-09 	-2.06327e-10
0.2045 	0.626334 	7.58175e-08 	-5.24842e-10
0.2055 	0.245605 	6.00575e-08 	-2.25442e-10
0.2065 	0.0989668 	-3.69707e-08 	4.02573e-10
0.2075 	0.406824 	-8.91779e-08 	5.0306e-10
0.2085 	0.783189 	-2.56014e-08 	8.5188e-13
0.2095 	0.771541 	6.12204e-08 	-4.87867e-10
0.2105 	0.384057 	8.29814e-08 	-4.1756e-10
0.2115 	0.0719898 	-3.28263e-09 	2.42834e-10
0.2125 	0.284215 	-9.45071e-08 	5.87813e-10
0.2135 	0.762677 	-5.38828e-08 	1.59642e-10
0.2145 	0.879043 	4.85186e-08 	-4.3603e-10
0.2155 	0.498099 	9.41425e-08 	-5.23336e-10
0.2165 	0.0757748 	2.36812e-08 	8.65739e-11
0.2175 	0.183502 	-8.56549e-08 	5.72874e-10
0.2185 	0.685121 	-6.91999e-08 	2.56308e-10
0.2195 	0.890247 	3.23463e-08 	-3.34696e-10
0.2205 	0.571729 	8.73979e-08 	-5.14965e-10
0.2215 	0.128313 	4.21379e-08 	-6.53514e-11
0.2225 	0.109161 	-5.9307e-08 	4.4927e-10
0.2235 	0.528128 	-7.28908e-08 	3.213e-10
0.2245 	0.805449 	5.92406e-09 	-1.58673e-10
0.2255 	0.636673 	6.40796e-08 	-4.12421e-10
0.2265 	0.256339 	5.37755e-08 	-2.11708e-10
0.2275 	0.0869399 	-1.9054e-08 	2.402e-10
0.2285 	0.328245 	-6.627e-08 	3.63324e-10
0.2295 	0.667636 	-2.86294e-08 	6.33759e-11
0.2305 	0.715331 	3.19214e-08 	-2.58548e-10
0.2315 	0.45441 	5.71252e-08 	-3.09664e-10
0.2325 	0.155745 	2.16155e-08 	5.91039e-12
0.2335 	0.174307 	-4.67746e-08 	3.33187e-10
0.2345 	0.519218 	-5.57039e-08 	2.40057e-10
0.2355 	0.767978 	1.68298e-09 	-1.116e-10
0.2365 	0.637855 	5.28324e-08 	-3.31645e-10
0.2375 	0.272047 	4.72793e-08 	-1.60513e-10
0.2385 	0.10895 	-2.21441e-08 	2.37498e-10
0.2395 	0.391968 	-6.34795e-08 	3.05967e-10
0.2405 	0.746869 	-1.81085e-08 	-1.19569e-11
0.2415 	0.718879 	4.34981e-08 	-2.91561e-10
0.2425 	0.358421 	5.35617e-08 	-2.19142e-10
0.2435 	0.108772 	-3.22995e-09 	1.32895e-10
0.2445 	0.296805 	-5.43177e-08 	2.7687e-10
0.2455 	0.649619 	-2.67628e-08 	4.67634e-11
0.2465 	0.695007 	2.90481e-08 	-2.07087e-10
0.2475 	0.41155 	4.53805e-08 	-1.98221e-10
0.2485 	0.159499 	8.0504e-09 	4.72823e-11
0.2495 	0.244749 	-3.65598e-08 	1.98177e-10
0.2505 	0.527009 	-2.62264e-08 	6.36513e-11
0.2515 	0.609832 	1.65473e-08 	-1.26384e-10
0.2525 	0.408015 	3.02372e-08 	-1.13196e-10
0.2535 	0.232903 	1.28116e-09 	4.56103e-11
0.2545 	0.332346 	-2.10711e-08 	6.97959e-11
0.2555 	0.480158 	1.90067e-09 	-4.81662e-11
0.2565 	0.367188 	1.40293e-08 	2.1014e-11
0.2575 	0.300733 	-3.42148e-08 	2.74671e-10
0.2585 	0.769645 	-6.26475e-08 	1.85682e-10
0.2595 	1.15896 	2.79621e-08 	-3.132e-10
0.2605 	0.45322 	1.21075e-07 	-5.67557e-10
0.2615 	-0.335607 	8.17238e-08 	-6.23234e-10
0.2625 	-0.816688 	9.58532e-08 	-5.83455e-10
0.2635 	-1.81601 	8.20056e-08 	-3.4297e-10
0.2645 	-2.38275 	3.72905e-08 	-3.36955e-10
0.2655 	-2.78673 	5.93268e-08 	-2.30111e-10
0.2665 	-3.25906 	-7.93702e-09 	6.17457e-10
0.2675 	-2.4907 	-1.75896e-07 	1.07284e-09
0.2685 	-0.929319 	-1.4883e-07 	5.75014e-10
0.2695 	0.118259 	-4.91714e-08 	1.43315e-10
0.2705 	0.358527 	-2.44047e-09 	4.72245e-13
0.2715 	0.245706 	1.83373e-08 	-1.26638e-10
0.2725 	-0.00563365 	3.26005e-08 	-1.82089e-10
0.2735 	-0.272057 	1.68457e-08 	-7.87379e-11
0.2745 	-0.360608 	-7.25677e-09 	7.12052e-11
0.2755 	-0.245537 	-2.86568e-08 	1.38866e-10
0.2765 	0.0267014 	-2.59675e-08 	8.19757e-11
0.2775 	0.193738 	-5.39742e-09 	2.29281e-11
0.2785 	0.210862 	-9.41893e-09 	7.34184e-11
0.2795 	0.383223 	-2.7066e-08 	1.75217e-11
0.2805 	0.503796 	2.15419e-08 	-1.86849e-10
0.2815 	0.0668888 	5.50179e-08 	-2.89537e-11
0.2825 	-0.200411 	-5.18066e-08 	3.96282e-10
0.2835 	0.834509 	-1.42738e-07 	4.19568e-10
0.2845 	2.28599 	-8.37507e-08 	1.36931e-10
0.2855 	2.89303 	-1.5923e-09 	-1.38109e-11
0.2865 	2.76987 	3.55156e-08 	-1.48469e-10
0.2875 	1.99537 	8.2269e-08 	-2.19028e-10
0.2885 	1.08249 	4.94468e-08 	-9.90671e-11
0.2895 	0.76094 	1.77585e-09 	-1.81871e-11
0.2905 	0.702822 	5.6221e-09 	-1.17282e-11
0.2915 	0.62018 	3.62153e-09 	-7.11416e-12
0.2925 	0.57982 	6.74573e-09 	-1.92357e-11
0.2935 	0.413459 	1.97269e-08 	-2.48797e-11
0.2945 	0.16599 	1.1459e-08 	-4.64866e-12
0.2955 	0.182057 	-8.58547e-09 	1.31732e-11
0.2965 	0.414614 	-1.13419e-08 	1.01679e-11
0.2975 	0.504621 	-1.75755e-09 	3.02014e-12
0.2985 	0.504533 	-1.90132e-09 	1.64061e-12
